
259.0
259.0
258.0
256.0
256.0
256.0
255.0
256.0
251.0
249.0
250.0
247.0
245.0
247.0
245.0
250.0
243.0
230.0
228.0
228.0
227.0,65.0
265.0
264.0
260.0
262.0
259.0
259.0
258.0
256.0
256.0
256.0
255.0
256.0
251.0
249.0
250.0
247.0
245.0
247.0
245.0
250.0
243.0
230.0
228.0
228.0
227.0,348.0
348.0
349.0
350.0
350.0
350.0
350.0
350.0
351.0
351.0
351.0
351.0
349.0
349.0
348.0
347.0
346.0
344.0
343.0
346.0
345.0
344.0
344.0
346.0
345.0
345.0
347.0
347.0
346.0
345.0
344.0
346.0
346.0
345.0
348.0
350.0
350.0
351.0
354.0
354.0
356.0
356.0
354.0
355.0
355.0
356.0
355.0
355.0
359.0
360.0
361.0
360.0
359.0
361.0
361.0
362.0
360.0
364.0
364.0
364.0
366.0
369.0
373.0
372.0
367.0
363.0
367.0
374.0
384.0
389.0
387.0
386.0
400.0
412.0
399.0
380.0
376.0
394.0
379.0
365.0
408.0
482.0
477.0
478.0
498.0
500.0
525.0
353.0
285.0
369.0
487.0
609.0
510.0
443.0
383.0
439.0
448.0
407.0
401.0
481.0
497.0
456.0
476.0
631.0
624.0
369.0
349.0
442.0
503.0
526.0
512.0
453.0
438.0
454.0
467.0
497.0
488.0
460.0
453.0
469.0
510.0
505.0
474.0
475.0
478.0
483.0
502.0
487.0
448.0
449.0
463.0
475.0
480.0
483.0
484.0
487.0
481.0
469.0
474.0
486.0
477.0
482.0
487.0
475.0
473.0
473.0
499.0
536.0
497.0
445.0
443.0
442.0
422.0
416.0
421.0
437.0
447.0
440.0
433.0
422.0
426.0
431.0
430.0
426.0
416.0
406.0
408.0
394.0
389.0
390.0
387.0
392.0
396.0
388.0
391.0
379.0
370.0
369.0
364.0
348.0
338.0
337.0
338.0
338.0
335.0
333.0
333.0
332.0
333.0
326.0
330.0
328.0
324.0
319.0
321.0
326.0
326.0
322.0
320.0
320.0
318.0
316.0
314.0
316.0
318.0
315.0
314.0
316.0
314.0
315.0
315.0
312.0
316.0
320.0
320.0
311.0
301.0
296.0
308.0
329.0
324.0
304.0
299.0
301.0
331.0
363.0
357.0
340.0
274.0
250.0
306.0
408.0
387.0
241.0
237.0
254.0
367.0
426.0
308.0
300.0
340.0
310.0
246.0
265.0
314.0
229.0
243.0
288.0
324.0
316.0
356.0
301.0
226.0
278.0
343.0
341.0
253.0
242.0
301.0
286.0
309.0
274.0
239.0
270.0
311.0
314.0
291.0
338.0
321.0
315.0
241.0
238.0
272.0
301.0
325.0
286.0
270.0
266.0
276.0
309.0
344.0
278.0
248.0
259.0
275.0
286.0
295.0
295.0
273.0
269.0
284.0
292.0
289.0
276.0
269.0
279.0
298.0
320.0
305.0
300.0
300.0
300.0
286.0
267.0
278.0
291.0
281.0
259.0
265.0
265.0
249.0
243.0
264.0
299.0
301.0
281.0
241.0
222.0
225.0
240.0
244.0
250.0
258.0
263.0
258.0
247.0
250.0
240.0
229.0
230.0
231.0
230.0
229.0
232.0
225.0
216.0
221.0
221.0
220.0
224.0
220.0
224.0
224.0
225.0
227.0
235.0
236.0
234.0
232.0
233.0
237.0
242.0
236.0
235.0
236.0
235.0
236.0
240.0
245.0
250.0
257.0
260.0
255.0
251.0
253.0
255.0
251.0
248.0
249.0
246.0
245.0
248.0
253.0
256.0
257.0
254.0
249.0
263.0
272.0
278.0
256.0
238.0
269.0
269.0
239.0
227.0
218.0
227.0
235.0
258.0
296.0
355.0
270.0
197.0
190.0
206.0
258.0
276.0
266.0
233.0
226.0
265.0
267.0
190.0
189.0
249.0
345.0
231.0
183.0
243.0
252.0
182.0
186.0
182.0
210.0
256.0
264.0
260.0
250.0
226.0
226.0
305.0
271.0
255.0
296.0
239.0
211.0
195.0
200.0
215.0
238.0
261.0
297.0
308.0
276.0
296.0
251.0
223.0
218.0
248.0
346.0
306.0
207.0
216.0
233.0
278.0
274.0
290.0
272.0
276.0
327.0
284.0
211.0
226.0
251.0
227.0
235.0
267.0
282.0
265.0
249.0
260.0
290.0
245.0
231.0
252.0
253.0
256.0
265.0
282.0
264.0
248.0
262.0
286.0
281.0
268.0
273.0
269.0
263.0
272.0
250.0
237.0
240.0
252.0
249.0
252.0
256.0
258.0
267.0
262.0
267.0
281.0
271.0
231.0
219.0
226.0
236.0
231.0
230.0
238.0
241.0
244.0
254.0
252.0
240.0
243.0
249.0
236.0
224.0
224.0
227.0
232.0
229.0
233.0
236.0
226.0
224.0
223.0
224.0
225.0
225.0
216.0
219.0
222.0
220.0
219.0
221.0
221.0
221.0
224.0
228.0
229.0
229.0
228.0
231.0
230.0
229.0
232.0
233.0
232.0
233.0
235.0
239.0
237.0
238.0
234.0
234.0
234.0
237.0
238.0
237.0
237.0
238.0
240.0
238.0
235.0
238.0
241.0
239.0
236.0
237.0
239.0
237.0
240.0
246.0
250.0
248.0
246.0
244.0
237.0
230.0
235.0
243.0
247.0
250.0
242.0
239.0
244.0
246.0
253.0
256.0
253.0
259.0
254.0
264.0
276.0
260.0
246.0
247.0
240.0
225.0
230.0
244.0
242.0
226.0
217.0
217.0
239.0
276.0
303.0
282.0
226.0
225.0
301.0
264.0
176.0
207.0
221.0
188.0
160.0
209.0
246.0
281.0
226.0
287.0
277.0
221.0
211.0
217.0
260.0
302.0
264.0
239.0
245.0
232.0
273.0
255.0
204.0
240.0
266.0
263.0
279.0
268.0
232.0
211.0
231.0
283.0
326.0
306.0
284.0
226.0
221.0
229.0
280.0
300.0
312.0
263.0
257.0
242.0
246.0
293.0
258.0
239.0
279.0
317.0
264.0
273.0
271.0
306.0
249.0
239.0
263.0
256.0
255.0
264.0
322.0
280.0
257.0
247.0
265.0
281.0
274.0
283.0
300.0
271.0
252.0
260.0
262.0
283.0
306.0
293.0
252.0
243.0
249.0
260.0
269.0
270.0
270.0
271.0
271.0
272.0
267.0
267.0
274.0
280.0
288.0
288.0
281.0
297.0
317.0
275.0
257.0
263.0
262.0
257.0
256.0
261.0
277.0
285.0
290.0
275.0
274.0
276.0
284.0
260.0
243.0
263.0
278.0
272.0
271.0
247.0
247.0
258.0
249.0
253.0
246.0
242.0
245.0
246.0
255.0
252.0
244.0
246.0
247.0
248.0
248.0
252.0
258.0
258.0
245.0
246.0
244.0
245.0
242.0
242.0
242.0
239.0
235.0
234.0
237.0
241.0
244.0
243.0
246.0
249.0
252.0
254.0
257.0
254.0
254.0
257.0
258.0
263.0
262.0
263.0
259.0
259.0
259.0
262.0
262.0
262.0
263.0
264.0
264.0
264.0
266.0
268.0
265.0
262.0
264.0
267.0
267.0
266.0
269.0
268.0
265.0
264.0
268.0
268.0
265.0
264.0
267.0
268.0
268.0
269.0
270.0
272.0
274.0
271.0
269.0
270.0
272.0
276.0
278.0
269.0
273.0
280.0
281.0
271.0
279.0
265.0
259.0
279.0
319.0
333.0
304.0
286.0
276.0
268.0
252.0
245.0
270.0
299.0
286.0
259.0
261.0
231.0
277.0
214.0
215.0
228.0
276.0
305.0
292.0
296.0
282.0
297.0
292.0
275.0
284.0
297.0
280.0
342.0
339.0
264.0
274.0
282.0
295.0
355.0
304.0
305.0
290.0
282.0
316.0
298.0
282.0
279.0
290.0
313.0
376.0
325.0
271.0
272.0
289.0
315.0
327.0
327.0
303.0
276.0
270.0
280.0
297.0
337.0
329.0
305.0
319.0
276.0
263.0
274.0
292.0
316.0
335.0
318.0
294.0
286.0
322.0
340.0
290.0
254.0
275.0
284.0
295.0
309.0
341.0
300.0
276.0
283.0
294.0
299.0
302.0
304.0
302.0
305.0
313.0
310.0
305.0
298.0
296.0
294.0
309.0
340.0
329.0
326.0
321.0
292.0
301.0
311.0
273.0
266.0
270.0
275.0
284.0
285.0
280.0
264.0
266.0
292.0
307.0
269.0
256.0
263.0
260.0
257.0
251.0
251.0
266.0
272.0
260.0
250.0
245.0
245.0
250.0
254.0
252.0
248.0
249.0
247.0
246.0
247.0
247.0
244.0
238.0
239.0
251.0
236.0
229.0
226.0
228.0
229.0
230.0
230.0
232.0
233.0
235.0
234.0
230.0
231.0
229.0
234.0
239.0
232.0
234.0
237.0
237.0
237.0
241.0
244.0
241.0
238.0
239.0
239.0
240.0
240.0
240.0
245.0
244.0
247.0
247.0
248.0
246.0
250.0
251.0
251.0
249.0
250.0
254.0
256.0
256.0
258.0
253.0
253.0
247.0
250.0
256.0
253.0
252.0
258.0
270.0
277.0
260.0
273.0
277.0
285.0
272.0
224.0
219.0
236.0
256.0
289.0
263.0
248.0
252.0
298.0
327.0
282.0
253.0
219.0
227.0
287.0
314.0
283.0
272.0
222.0
215.0
218.0
209.0
239.0
326.0
282.0
244.0
298.0
273.0
257.0
274.0
260.0
241.0
237.0
249.0
252.0
266.0
317.0
284.0
247.0
244.0
268.0
298.0
284.0
254.0
272.0
289.0
261.0
264.0
263.0
282.0
298.0
282.0
277.0
259.0
258.0
289.0
291.0
269.0
264.0
291.0
315.0
282.0
259.0
292.0
295.0
270.0
270.0
273.0
279.0
291.0
303.0
292.0
312.0
292.0
270.0
265.0
280.0
334.0
346.0
281.0
253.0
263.0
272.0
280.0
289.0
294.0
295.0
292.0
292.0
294.0
295.0
298.0
299.0
297.0
297.0
298.0
309.0
323.0
305.0
285.0
284.0
305.0
317.0
321.0
300.0
286.0
287.0
294.0
289.0
276.0
280.0
283.0
284.0
285.0
297.0
300.0
292.0
282.0
302.0
298.0
292.0
302.0
291.0
270.0
267.0
280.0
291.0
289.0
286.0
288.0
287.0
290.0
288.0
280.0
283.0
286.0
286.0
282.0
283.0
284.0
279.0
278.0
282.0
276.0
273.0
273.0
276.0
282.0
283.0
282.0
284.0
292.0
284.0
283.0
282.0
285.0
291.0
289.0
290.0
289.0
286.0
283.0
287.0
287.0
288.0
289.0
291.0
291.0
296.0
292.0
288.0
285.0
286.0
289.0
290.0
288.0
288.0
294.0
289.0
284.0
283.0
285.0
287.0
288.0
289.0
291.0
289.0
285.0
286.0
286.0
287.0
285.0
288.0
288.0
284.0
285.0
285.0
287.0
286.0
284.0
286.0
287.0
284.0
283.0
284.0
283.0
284.0
286.0
288.0
285.0
288.0
287.0
278.0
277.0
279.0
283.0
287.0
284.0
284.0
285.0
289.0
286.0
284.0
285.0
296.0
303.0
292.0
290.0
279.0
276.0
288.0
311.0
310.0
295.0
276.0
272.0
276.0
280.0
277.0
279.0
277.0
282.0
296.0
299.0
318.0
293.0
261.0
254.0
277.0
250.0
261.0
267.0
254.0
254.0
270.0
289.0
287.0
258.0
227.0
236.0
256.0
302.0
283.0
263.0
252.0
243.0
235.0
245.0
275.0
273.0
246.0
313.0
277.0
221.0
242.0
257.0
278.0
263.0
219.0
244.0
280.0
265.0
256.0
272.0
279.0
258.0
262.0
307.0
360.0
245.0
205.0
234.0
268.0
296.0
322.0
323.0
243.0
231.0
247.0
284.0
309.0
314.0
260.0
258.0
276.0
280.0
275.0
285.0
348.0
284.0
255.0
269.0
272.0
259.0
270.0
290.0
294.0
273.0
265.0
270.0
281.0
285.0
329.0
289.0
252.0
254.0
266.0
278.0
281.0
277.0
277.0
281.0
287.0
285.0
282.0
281.0
283.0
291.0
303.0
300.0
281.0
274.0
280.0
287.0
284.0
290.0
303.0
304.0
300.0
281.0
276.0
280.0
288.0
284.0
284.0
283.0
283.0
292.0
303.0
296.0
285.0
268.0
270.0
273.0
282.0
287.0
282.0
276.0
264.0
264.0
267.0
280.0
287.0
278.0
267.0
269.0
269.0
275.0
272.0
273.0
274.0
275.0
274.0
274.0
277.0
275.0
272.0
267.0
266.0
268.0
269.0
270.0
268.0
271.0
273.0
275.0
276.0
275.0
275.0
276.0
278.0
279.0
279.0
285.0
287.0
288.0
289.0
289.0
289.0
291.0
292.0
291.0
291.0
293.0
293.0
296.0
296.0
297.0
297.0
296.0
296.0
295.0
297.0
300.0
300.0
298.0
298.0
297.0
296.0
295.0
296.0
297.0
296.0
295.0
296.0
298.0
299.0
298.0
295.0
295.0
296.0
297.0
298.0
296.0
293.0
296.0
306.0
315.0
311.0
299.0
281.0
280.0
290.0
300.0
292.0
288.0
296.0
297.0
302.0
301.0
308.0
326.0
356.0
317.0
291.0
297.0
336.0
345.0
316.0
261.0
282.0
281.0
253.0
282.0
329.0
297.0
242.0
252.0
251.0
276.0
335.0
311.0
274.0
249.0
272.0
256.0
245.0
266.0
280.0
277.0
262.0
238.0
241.0
259.0
258.0
253.0
256.0
259.0
305.0
306.0
240.0
248.0
246.0
256.0
264.0
276.0
300.0
239.0
219.0
236.0
251.0
263.0
282.0
319.0
270.0
235.0
241.0
249.0
265.0
282.0
266.0
284.0
299.0
246.0
233.0
239.0
253.0
264.0
275.0
298.0
268.0
246.0
251.0
259.0
279.0
288.0
261.0
261.0
297.0
308.0
252.0
244.0
258.0
269.0
272.0
275.0
277.0
277.0
277.0
292.0
295.0
285.0
275.0
281.0
297.0
291.0
279.0
279.0
290.0
296.0
305.0
335.0
348.0
308.0
279.0
269.0
275.0
278.0
282.0
289.0
297.0
305.0
308.0
313.0
331.0
329.0
328.0
310.0
296.0
292.0
293.0
293.0
297.0
317.0
324.0
334.0
330.0
310.0
304.0
308.0
306.0
310.0
316.0
321.0
324.0
324.0
328.0
330.0
328.0
324.0
323.0
323.0
325.0
329.0
333.0
327.0
325.0
326.0
327.0
325.0
325.0
326.0
329.0
332.0
332.0
331.0
332.0
335.0
336.0
338.0
339.0
335.0
336.0
341.0
341.0
339.0
339.0
340.0
337.0
336.0
338.0
339.0
338.0
339.0
340.0
340.0
338.0
337.0
340.0
340.0
339.0
340.0
341.0
340.0
340.0
338.0
337.0
336.0
336.0
336.0
340.0
338.0
337.0
337.0
337.0
335.0
335.0
334.0
335.0
333.0
333.0
331.0
328.0
328.0
330.0
330.0
325.0
324.0
326.0
325.0
324.0
323.0
324.0
326.0
321.0
319.0
320.0
322.0
318.0
317.0
316.0
317.0
321.0
319.0
319.0
316.0
312.0
305.0
315.0
325.0
321.0
316.0
302.0
306.0
310.0
310.0
321.0
309.0
277.0
273.0
291.0
303.0
307.0
298.0
287.0
293.0
298.0
287.0
287.0
331.0
370.0
326.0
262.0
263.0
265.0
277.0
245.0
251.0
248.0
239.0
244.0
285.0
275.0
238.0
235.0
262.0
278.0
278.0
268.0
278.0
264.0
235.0
227.0
232.0
256.0
245.0
238.0
245.0
259.0
272.0
281.0
271.0
253.0
280.0
230.0
227.0
228.0
238.0
244.0
276.0
317.0
268.0
227.0
230.0
250.0
248.0
251.0
262.0
243.0
261.0
256.0
250.0
250.0
289.0
265.0
227.0
241.0
246.0
281.0
279.0
226.0
245.0
252.0
246.0
261.0
289.0
280.0
256.0
239.0
244.0
251.0
257.0
260.0
267.0
300.0
288.0
241.0
241.0
263.0
268.0
263.0
263.0
265.0
266.0
267.0
269.0
272.0
276.0
284.0
283.0
276.0
287.0
288.0
278.0
269.0
267.0
272.0
278.0
281.0
283.0
286.0
293.0
303.0
303.0
313.0
321.0
307.0
282.0
269.0
275.0
291.0
302.0
297.0
291.0
297.0
304.0
306.0
303.0
303.0
302.0
299.0
304.0
307.0
310.0
305.0
309.0
298.0
304.0
308.0
313.0
315.0
308.0
302.0
302.0
300.0
301.0
304.0
306.0
307.0
309.0
313.0
318.0
319.0
311.0
312.0
314.0
317.0
322.0
320.0
322.0
325.0
330.0
334.0
331.0
331.0
331.0
328.0
329.0
333.0
333.0
330.0
328.0
330.0
331.0
332.0
330.0
329.0
330.0
331.0
333.0
334.0
336.0
338.0
342.0
343.0
346.0
350.0
353.0
354.0
352.0
351.0
350.0
354.0
353.0
355.0
356.0
358.0
359.0
360.0
363.0
363.0
362.0
361.0
364.0
362.0
359.0
361.0
361.0
361.0
362.0
364.0
369.0
370.0
366.0
371.0
360.0
361.0
354.0
348.0
351.0
365.0
372.0
374.0
373.0
370.0
340.0
340.0
361.0
360.0
353.0
354.0
348.0
344.0
341.0
354.0
372.0
386.0
361.0
337.0
329.0
